t,x,xdot,theta,thetadot,u,theta_ref,x_hat,theta_hat
0,0,0,0.0872665,0,4.41168,0.0011119,0.011119,0.0871217
0.01,0.000422156,0.0843635,0.0865115,-0.150785,4.30278,0.0011119,0.00341674,0.0863957
0.02,0.0016752,0.166193,0.0842755,-0.296303,3.45348,0.0011119,-0.0124263,0.0805724
0.03,0.0036605,0.230838,0.0807554,-0.407719,3.37598,0.0011119,0.0186782,0.0786541
0.04,0.00628374,0.293791,0.076136,-0.516206,2.96137,0.0011119,0.00450888,0.0745293
0.05,0.0094947,0.348394,0.070512,-0.608732,4.31017,-0.0038881,-0.00804304,0.0833642
0.06,0.013386,0.429842,0.0636906,-0.755654,2.96199,-0.00399798,0.0244001,0.0751605
0.07,0.0179569,0.484343,0.055664,-0.849884,-1.8345,-0.00399798,0.0142275,0.0418591
0.08,0.0225947,0.443317,0.0476422,-0.75497,2.30715,-0.00399798,0.0266177,0.0611866
0.09,0.027238,0.485347,0.0397309,-0.827551,-0.969204,-0.00399798,0.0257511,0.038117
0.1,0.0319751,0.462157,0.0317385,-0.771351,0.0681024,0.00100202,0.0515518,0.0374209
0.11,0.036586,0.460069,0.0240887,-0.758974,1.31796,0.00600202,0.0385077,0.0399688
0.12,0.0413023,0.483213,0.0163027,-0.798508,-1.77523,0.011002,0.0566926,0.0155018
0.13,0.0459421,0.444841,0.00872936,-0.716625,-3.13848,0.0124262,0.0477785,-0.00095113
0.14,0.0500646,0.379753,0.00223329,-0.583079,-2.08654,0.0124262,0.0554341,-0.00218761
0.15,0.0536441,0.336227,-0.00315126,-0.494208,-2.01609,0.00956645,0.045372,-0.00653907
0.16,0.0567976,0.294534,-0.00767205,-0.410283,-2.25589,0.00956645,0.0475142,-0.0129543
0.17,0.0595122,0.248444,-0.0113154,-0.318683,-3.26367,0.00956645,0.0545513,-0.0243095
0.18,0.0616672,0.182628,-0.0138504,-0.188643,0.378562,0.00956645,0.0599519,-0.00564244
0.19,0.0635297,0.189893,-0.0158202,-0.205372,-0.845549,0.00956645,0.0718989,-0.0133979
0.2,0.065343,0.17278,-0.0177152,-0.173766,0.751296,0.0111749,0.0545469,-0.00474173
0.21,0.0671452,0.187676,-0.0196164,-0.206527,-2.68112,0.0111749,0.0712229,-0.0266698
0.22,0.0687539,0.13411,-0.0211623,-0.102878,-1.02414,0.0111749,0.0521887,-0.0198596
0.23,0.0699939,0.113921,-0.0220084,-0.0664441,-1.68366,0.0111749,0.0791138,-0.0255673
0.24,0.0709669,0.0807118,-0.0223614,-0.00427304,-3.42609,0.0111749,0.071417,-0.0393258
0.25,0.0714348,0.0129282,-0.0217485,0.126698,2.59226,0.0154521,0.0741616,-0.00511486
0.26,0.0718272,0.0654926,-0.0210301,0.0171623,1.41947,0.0154521,0.0939051,-0.00832147
0.27,0.0726267,0.0943721,-0.021168,-0.0446596,-2.56977,0.0154521,0.0672565,-0.0325543
0.28,0.073316,0.043545,-0.0211266,0.0527965,-0.0392999,0.0154521,0.0831594,-0.0194949
0.29,0.073751,0.043439,-0.0206191,0.048737,0.359804,0.0154521,0.0661041,-0.0164723
0.3,0.0742246,0.0512718,-0.0202309,0.0289362,-0.49238,0.0140085,0.0737707,-0.0207594
0.31,0.0746912,0.042051,-0.0198697,0.0433131,-1.26729,0.0140085,0.0844226,-0.0262696
0.32,0.0749883,0.0174044,-0.0192103,0.0885244,0.0192987,0.0140085,0.0738241,-0.0191462
0.33,0.075168,0.018515,-0.0183563,0.0823182,0.135001,0.0140085,0.0708414,-0.0177611
0.34,0.0753701,0.0218925,-0.0175861,0.0717687,0.570289,0.0140085,0.0940419,-0.0141422
0.35,0.0756491,0.0339035,-0.0170068,0.044158,-2.22603,0.0126845,0.0729503,-0.0310608
0.36,0.0757687,-0.0099463,-0.0161442,0.128275,0.1379,0.0126845,0.0753064,-0.0182062
0.37,0.0756868,-0.00646015,-0.014914,0.117822,-0.108727,0.0126845,0.0860499,-0.0189304
0.38,0.0756147,-0.00796061,-0.0137372,0.117595,-0.344509,0.0126845,0.0847825,-0.02005
0.39,0.0755039,-0.0142043,-0.0125141,0.12707,-1.43015,0.0126845,0.07904,-0.0272347
0.4,0.0752222,-0.0421217,-0.0109785,0.180042,-0.411412,0.00894768,0.0623055,-0.020759
0.41,0.0747634,-0.0496396,-0.00911639,0.19244,0.742414,0.00894768,0.0759594,-0.0126687
0.42,0.0743444,-0.0341773,-0.00735843,0.15928,0.434515,0.00894768,0.0908268,-0.0126581
0.43,0.0740486,-0.025004,-0.00586697,0.139108,-1.29945,0.00894768,0.0792089,-0.02284
0.44,0.0736709,-0.0505254,-0.00422859,0.188568,2.11149,0.00894768,0.0672234,-0.00144447
0.45,0.0733788,-0.0079409,-0.00277569,0.102208,2.76008,0.0139477,0.0867981,0.00507131
0.46,0.0735759,0.047311,-0.00231029,-0.00894182,1.6845,0.0150262,0.0760518,0.00156158
0.47,0.0742167,0.0808109,-0.00273677,-0.0762727,0.697398,0.0150262,0.0804328,-0.00311886
0.48,0.0750931,0.0944679,-0.00363756,-0.103885,3.1572,0.0150262,0.0772949,0.0135065
0.49,0.0763515,0.15716,-0.00530519,-0.229528,-1.52359,0.0150262,0.0713993,-0.013853
0.5,0.0777682,0.126228,-0.00729291,-0.168201,-0.122714,0.0100262,0.0688837,-0.00636329
0.51,0.0790167,0.123474,-0.00895196,-0.163693,0.240009,0.00919128,0.0673595,-0.00434652
0.52,0.0802742,0.128034,-0.0106408,-0.174127,-1.48675,0.00919128,0.083764,-0.0158632
0.53,0.0814051,0.0981911,-0.0120914,-0.116164,-2.5666,0.00919128,0.10114,-0.0256247
0.54,0.0821309,0.0470149,-0.0127515,-0.0160353,2.64493,0.00919128,0.0764579,0.00524118
0.55,0.0828666,0.100075,-0.0134546,-0.124447,-0.90146,0.0141913,0.105114,-0.0157941
0.56,0.0837776,0.0821555,-0.0145312,-0.0909737,0.575414,0.018469,0.0748359,-0.0091993
0.57,0.0846575,0.0938253,-0.0155704,-0.116885,0.117741,0.018469,0.0690478,-0.0120017
0.58,0.0856084,0.0963464,-0.0167779,-0.124664,-2.10969,0.018469,0.0919514,-0.0273082
0.59,0.0863622,0.0544722,-0.0176205,-0.0440113,-1.10503,0.018469,0.0653186,-0.0243166
0.6,0.0867989,0.032879,-0.0178613,-0.00422918,-0.4989,0.013469,0.0628033,-0.0204149
0.61,0.0870807,0.0234917,-0.0178272,0.0110304,-1.39327,0.00846896,0.102697,-0.0250476
0.62,0.0871796,-0.0036906,-0.0174628,0.0617898,-2.0642,0.00585975,0.0984662,-0.0299048
0.63,0.0869403,-0.0441355,-0.0164586,0.138972,0.311205,0.00585975,0.0850034,-0.0159842
0.64,0.0865345,-0.0370384,-0.0151581,0.12122,-1.39282,0.00585975,0.0902739,-0.0255278
0.65,0.0860292,-0.0640193,-0.0136928,0.171817,0.400597,0.0108597,0.0886959,-0.0161482
0.66,0.0854334,-0.0551506,-0.0120794,0.150983,0.69045,0.0128345,0.0730043,-0.0133963
0.67,0.0849547,-0.0406089,-0.010729,0.119189,0.147877,0.0128345,0.0657399,-0.0154167
0.68,0.0845666,-0.037017,-0.00958538,0.109608,-2.20869,0.0128345,0.076024,-0.0305116
0.69,0.0839789,-0.0804975,-0.00806565,0.194279,1.40691,0.0128345,0.0951856,-0.00935171
0.7,0.0833181,-0.0516966,-0.00642166,0.134682,2.85021,0.00942207,0.0783772,0.00414723
0.71,0.0830884,0.00568609,-0.00565689,0.0184805,0.510128,0.00942207,0.0782565,-0.0066272
0.72,0.0831972,0.0160699,-0.00558172,-0.00341141,2.56371,0.00942207,0.0837946,0.00788644
0.73,0.0836146,0.0673632,-0.00613407,-0.10693,0.589114,0.00942207,0.0885653,-0.00150358
0.74,0.0843466,0.0790303,-0.0073244,-0.131154,0.983936,0.00942207,0.0770745,0.00155788
0.75,0.0852346,0.0985604,-0.00883637,-0.17125,-2.35771,0.0107663,0.0844082,-0.0202013
0.76,0.0859841,0.0513925,-0.0100833,-0.0783423,-0.107565,0.0107663,0.0890837,-0.00939135
0.77,0.086488,0.0493949,-0.0108555,-0.0761238,0.510597,0.0107663,0.0913616,-0.00566208
0.78,0.0870338,0.0597672,-0.0117299,-0.0987645,0.0593566,0.0107663,0.0796816,-0.00810282
0.79,0.0876382,0.0611195,-0.012741,-0.103505,-2.7236,0.0107663,0.0800444,-0.0268199
0.8,0.0879785,0.00699173,-0.0132458,0.00235761,-0.811287,0.012349,0.0917968,-0.0188674
0.81,0.0879699,-0.00870069,-0.0130784,0.0310955,0.613385,0.012349,0.0866408,-0.0104482
0.82,0.0879469,0.00409581,-0.0129086,0.00290199,1.27832,0.012349,0.0869063,-0.00486339
0.83,0.0881179,0.0300837,-0.0131521,-0.0515274,3.0418,0.012349,0.0804234,0.0089021
0.84,0.0887242,0.0911247,-0.0142897,-0.175861,1.9185,0.012349,0.0922098,0.00581176
0.85,0.0898274,0.129494,-0.0164432,-0.25482,-2.07459,0.0127488,0.0952768,-0.0186966
0.86,0.0909152,0.0881067,-0.0185899,-0.174737,-5.08841,0.0127488,0.105223,-0.0427381
0.87,0.0912897,-0.0131007,-0.0193411,0.0241591,-2.88509,0.0127488,0.0979775,-0.0360247
0.88,0.0908749,-0.0698262,-0.0185518,0.133576,0.728175,0.0127488,0.0941542,-0.0157614
0.89,0.0902547,-0.0542311,-0.0173921,0.0984605,1.30219,0.0127488,0.0864266,-0.0099817
0.9,0.0898471,-0.0273116,-0.0166952,0.0410493,1.286,0.0111339,0.0912342,-0.00696503
0.91,0.0897063,-0.000878963,-0.0165659,-0.0151052,-0.76687,0.0111339,0.0687477,-0.0182563
0.92,0.0896242,-0.0155328,-0.0165864,0.0109528,1.83917,0.0111339,0.0840774,-0.00179543
0.93,0.089656,0.0218667,-0.0168672,-0.0670011,-0.980563,0.0111339,0.107965,-0.0175442
0.94,0.0897795,0.00284469,-0.0173625,-0.0321458,-0.40407,0.0111339,0.0931441,-0.0151677
0.95,0.0897708,-0.0045652,-0.0176264,-0.0206647,-0.891618,0.00937284,0.0858868,-0.0182807
0.96,0.0896396,-0.0216539,-0.0176792,0.0100614,0.0790564,0.00937284,0.106882,-0.0128012
0.97,0.0894349,-0.0192954,-0.0176196,0.00186619,-1.76249,0.00937284,0.0861493,-0.0245216
0.98,0.0890699,-0.0536846,-0.0172745,0.0670805,0.433726,0.00937284,0.0764517,-0.0121136
0.99,0.088581,-0.0441105,-0.0167173,0.0444089,-1.18628,0.00937284,0.0937516,-0.0216452
1,0.0880257,-0.0669211,-0.0160622,0.0865708,-1.20974,0.0117463,0.0952772,-0.0238653
1.01,0.0872405,-0.0901129,-0.0149817,0.129514,-0.47345,0.0117463,0.0978481,-0.0202985
1.02,0.0862972,-0.0985462,-0.0136189,0.143087,-0.0644274,0.0117463,0.0821682,-0.0176736
1.03,0.0853103,-0.0988333,-0.0122007,0.140624,1.42134,0.0117463,0.102749,-0.00725304
1.04,0.0844687,-0.0695385,-0.0111014,0.0793727,1.50679,0.0117463,0.0799275,-0.00402409
1.05,0.0839275,-0.0387302,-0.0106278,0.0154716,-1.17754,0.00873452,0.0853698,-0.0184253
1.06,0.0834255,-0.0616419,-0.0102546,0.0591055,-0.372371,0.00873452,0.0759229,-0.0145975
1.07,0.0827753,-0.0683931,-0.00960701,0.0704278,0.686909,0.00873452,0.0728364,-0.00771168
1.08,0.0821634,-0.0540067,-0.00905704,0.0396357,-1.0385,0.00873452,0.0791869,-0.0178016
1.09,0.0815226,-0.0741331,-0.00846894,0.0779532,1.4156,0.00873452,0.080979,-0.00274128
1.1,0.080926,-0.0452284,-0.00798787,0.0183708,1.23966,0.0137345,0.106515,-0.00310098
1.11,0.0806,-0.0199979,-0.00806451,-0.0336258,2.24937,0.0143403,0.0838812,0.00500176
1.12,0.0806264,0.0252494,-0.00886053,-0.125476,-0.276419,0.0143403,0.0775107,-0.00898734
1.13,0.0808522,0.0199156,-0.0100687,-0.116234,1.32125,0.0143403,0.0654097,0.000454723
1.14,0.0811844,0.0465244,-0.0115052,-0.171041,-0.674604,0.0143403,0.0792343,-0.0115587
1.15,0.0815832,0.0332425,-0.0130915,-0.146327,2.03144,0.0116947,0.0988995,0.00555522
1.16,0.0821198,0.0740653,-0.0149735,-0.230029,-0.878145,0.0116947,0.0775571,-0.0112444
1.17,0.0827736,0.0567183,-0.0171115,-0.197726,-0.738548,0.0116947,0.0862161,-0.0123152
1.18,0.0832687,0.0423257,-0.0189586,-0.171824,-2.63784,0.0116947,0.067428,-0.0265494
1.19,0.083431,-0.00980522,-0.0201717,-0.0710002,-3.40471,0.0116947,0.0638749,-0.0358732
1.2,0.0829971,-0.0769231,-0.0202294,0.0592482,1.34782,0.0107198,0.0963715,-0.00874425
1.21,0.082368,-0.0489137,-0.0199376,-0.000789861,-1.6353,0.0107198,0.0623356,-0.025856
1.22,0.0817205,-0.0805575,-0.0196487,0.0584931,-2.76899,0.0107198,0.0633445,-0.0353662
1.23,0.0806442,-0.134669,-0.018543,0.162541,-0.916473,0.0107198,0.0687884,-0.0264309
1.24,0.0792128,-0.151605,-0.016769,0.192309,0.633717,0.0107198,0.0816261,-0.0163872
1.25,0.0777669,-0.137607,-0.0150051,0.160578,-0.170089,0.0057198,0.0757853,-0.0180413
1.26,0.07638,-0.139783,-0.0133947,0.161571,1.57083,0.00504969,0.0824981,-0.00522071
1.27,0.0751448,-0.107286,-0.0121195,0.0936377,-1.66888,0.00504969,0.070915,-0.0233091
1.28,0.0739102,-0.139627,-0.0108731,0.155606,1.483,0.00504969,0.0703456,-0.00397633
1.29,0.0726673,-0.108983,-0.0096364,0.0918809,0.950831,0.00504969,0.0849902,-0.00434782
1.3,0.0716767,-0.0891575,-0.00892663,0.0501663,0.669976,0.00209497,0.0631245,-0.00320031
1.31,0.0708557,-0.0750629,-0.00857538,0.0201424,-2.60949,0.00209497,0.0678127,-0.0234517
1.32,0.0698478,-0.126472,-0.00786869,0.121077,2.57011,0.00209497,0.0536716,0.007653
1.33,0.0688441,-0.0743295,-0.00718878,0.0150934,-4.24817,0.00209497,0.0379599,-0.0331739
1.34,0.0676796,-0.158487,-0.00620372,0.181714,2.55649,0.00209497,0.0783489,0.00620333
1.35,0.0663549,-0.106522,-0.00491497,0.0762516,-0.150287,0.00299105,0.0638489,-0.0073815
1.36,0.0652779,-0.108864,-0.00413501,0.0797691,-1.33572,0.00299105,0.0560274,-0.0151305
1.37,0.0640592,-0.134872,-0.00308255,0.130694,1.6218,0.00299105,0.0636324,0.00296681
1.38,0.062876,-0.101794,-0.00211133,0.0636936,0.936526,0.00299105,0.0667942,0.00134035
1.39,0.0619542,-0.0825906,-0.00166943,0.0247645,-0.428191,0.00299105,0.0700237,-0.00615786
1.4,0.0610876,-0.0907249,-0.00134247,0.0406184,-4.32481,0.00318546,0.0624568,-0.0327998
1.41,0.0597508,-0.176563,-8.00061e-05,0.211676,0.110362,0.00318546,0.0630474,-0.00955219
1.42,0.0580004,-0.173544,0.00200327,0.205085,-0.107874,0.00318546,0.0571281,-0.0100544
1.43,0.0562578,-0.174976,0.00406727,0.207805,1.45256,0.00318546,0.0659392,0.000871948
1.44,0.0546564,-0.145353,0.00584997,0.148905,-0.0126526,0.00318546,0.0689325,-0.00611904
1.45,0.0532038,-0.145177,0.00734072,0.149313,2.12545,0.000746436,0.0513978,0.00924581
1.46,0.0519661,-0.102409,0.00841118,0.0649545,-1.49415,0.000746436,0.0553555,-0.0112719
1.47,0.0507934,-0.1321,0.00936481,0.125726,2.57195,0.000746436,0.0410225,0.0136846
1.48,0.0497303,-0.0805692,0.0101141,0.0243273,1.73075,0.000746436,0.0473136,0.0121886
1.49,0.0490971,-0.0461056,0.0100224,-0.0425793,-0.500349,0.000746436,0.0466134,-0.000276497
1.5,0.048585,-0.0563157,0.00970914,-0.0201183,3.47829,-0.00185238,0.0389064,0.0259499
1.51,0.0483682,0.0129037,0.00882574,-0.156397,1.04772,-0.00185238,0.0225615,0.0147982
1.52,0.0485994,0.0333274,0.0070686,-0.195051,0.670238,-0.00185238,0.0377105,0.0131715
1.53,0.0489969,0.0461883,0.0049994,-0.218847,-0.590614,-0.00185238,0.0410454,0.00499752
1.54,0.0493973,0.0339146,0.00294187,-0.192791,0.801332,-0.00185238,0.0400065,0.0126152
1.55,0.0498146,0.0495504,0.000863444,-0.222942,-0.358713,0.0022261,0.0506113,0.00410697
1.56,0.0502725,0.0420482,-0.00128673,-0.207214,-1.06794,0.0022261,0.0546084,-0.00212205
1.57,0.0505852,0.0205198,-0.00314174,-0.163936,0.196862,0.0022261,0.0515289,0.00392522
1.58,0.0508098,0.0244029,-0.0048205,-0.171882,-2.12808,0.0022261,0.0595362,-0.0118204
1.59,0.0508413,-0.0180464,-0.00611701,-0.087607,-1.25077,0.0022261,0.059014,-0.00963473
1.6,0.0505373,-0.0427314,-0.00675094,-0.0392805,1.0243,-0.0027739,0.0291592,0.00524276
1.61,0.0502143,-0.021885,-0.00735818,-0.0821312,-1.00282,-0.00302195,0.0388957,-0.00618677
1.62,0.049897,-0.0415571,-0.00798876,-0.0440731,-2.30936,-0.00302195,0.0688328,-0.0161023
1.63,0.0492532,-0.0871691,-0.00798063,0.0455653,-0.29436,-0.00302195,0.0526831,-0.00567599
1.64,0.0483555,-0.0923582,-0.0074816,0.0542483,-0.479974,-0.00302195,0.0463711,-0.00660111
1.65,0.0473875,-0.101244,-0.00685843,0.0703894,1.58025,0.00197805,0.0445439,0.00546969
1.66,0.0465364,-0.0690132,-0.00648456,0.00449845,-1.34146,0.00207027,0.0677109,-0.011355
1.67,0.045715,-0.0952421,-0.00618376,0.0555978,-0.193793,0.00207027,0.0471587,-0.00565327
1.68,0.0447465,-0.0984578,-0.00560254,0.0606658,-0.426796,0.00207027,0.0586552,-0.00723916
1.69,0.0437225,-0.106329,-0.00492359,0.0751312,-3.51408,0.00207027,0.0475391,-0.0281952
1.7,0.0423118,-0.175774,-0.00348394,0.212659,2.19347,0.000527555,0.0372686,0.00546307
1.71,0.0407778,-0.131071,-0.00181094,0.122152,-0.292288,0.000527555,0.0391008,-0.00689988
1.72,0.0394412,-0.136245,-0.000541321,0.131815,-1.49256,0.000527555,0.0442122,-0.0148432
1.73,0.037933,-0.165386,0.00106565,0.189566,-0.36056,0.000527555,0.0488649,-0.00902269
1.74,0.0362468,-0.171863,0.00302421,0.202218,2.36579,0.000527555,0.0260886,0.00929561
1.75,0.0347678,-0.123997,0.0045677,0.106696,1.51167,0.00432891,0.0495242,0.00650022
1.76,0.0336806,-0.0934706,0.0053323,0.04635,2.87054,0.00432891,0.0332775,0.0177154
1.77,0.0330334,-0.0360199,0.00522593,-0.0674585,-0.0172255,0.00432891,0.0443538,0.00239322
1.78,0.032671,-0.0364586,0.00456187,-0.0653851,0.292043,0.00432891,0.0287205,0.00366983
1.79,0.0323352,-0.0306991,0.0038559,-0.075825,0.786076,0.00432891,0.0483984,0.00672362
1.8,0.0321063,-0.0150854,0.00294647,-0.106056,1.15542,0.00363257,0.0465232,0.00993683
1.81,0.0320702,0.00785399,0.00166106,-0.151017,-0.369933,0.00363257,0.0254363,0.00082768
1.82,0.0321109,0.000300342,0.000230346,-0.135216,0.660814,0.00363257,0.0249923,0.00638167
1.83,0.0321794,0.0134026,-0.00125052,-0.160987,-0.0772852,0.00363257,0.0178911,0.00181679
1.84,0.0323052,0.011773,-0.00284287,-0.157561,-0.744956,0.00363257,0.0287146,-0.00341158
1.85,0.0323485,-0.00310501,-0.00427011,-0.127997,-3.18105,-0.00134243,0.0272296,-0.0196739
1.86,0.0320004,-0.0664484,-0.00491901,-0.00200119,0.84245,-0.00134243,0.0288042,0.0024156
1.87,0.0314223,-0.0491869,-0.00511639,-0.0374309,-0.843845,-0.00134243,0.0390802,-0.0070735
1.88,0.030848,-0.0656434,-0.0053306,-0.00547083,-0.918092,-0.00134243,0.0334231,-0.00850859
1.89,0.0301023,-0.0834905,-0.00521201,0.0291417,-1.6887,-0.00134243,0.021345,-0.0145916
1.9,0.0291016,-0.116626,-0.00459486,0.0942187,0.355302,0.00289359,0.0405738,-0.00435916
1.91,0.0279743,-0.108845,-0.0037364,0.0775367,2.46523,0.00289359,0.0162435,0.0106594
1.92,0.0271351,-0.0590474,-0.00346375,-0.0228437,1.67349,0.00289359,0.0333298,0.00935353
1.93,0.0267135,-0.0253051,-0.00403259,-0.0908481,-1.87379,0.00289359,0.023045,-0.0119369
1.94,0.0262744,-0.0624725,-0.00457203,-0.0171767,1.38627,0.00289359,0.0122634,0.00663768
1.95,0.0257901,-0.0343999,-0.00502869,-0.0740897,3.32054,-0.000241087,0.0280914,0.0225993
1.96,0.0257791,0.032134,-0.00643858,-0.207754,-0.229114,-0.000241087,0.0246239,0.00382964
1.97,0.0260775,0.027579,-0.00847372,-0.19938,-0.403697,-0.000241087,0.0255367,0.00175788
1.98,0.0263135,0.0196433,-0.0103934,-0.184675,0.673438,-0.000241087,0.0417367,0.00787315
1.99,0.0265783,0.0333079,-0.0123842,-0.213519,-3.17379,-0.000241087,0.0365123,-0.0171265
2,0.0265957,-0.02976,-0.0138977,-0.0894494,-2.67668,-0.00233801,0.0183216,-0.0182366
2.01,0.026034,-0.0825364,-0.0142768,0.0134503,-2.49022,-0.00233801,0.0233429,-0.0206557
2.02,0.0249645,-0.131315,-0.0136689,0.108027,-0.47503,-0.00233801,0.0286072,-0.0102
2.03,0.0236096,-0.139678,-0.01252,0.121772,0.0754553,-0.00233801,0.00955138,-0.00619263
2.04,0.0222259,-0.137064,-0.0113426,0.113787,-0.738811,-0.00233801,0.0274271,-0.0105055
2.05,0.0207868,-0.150754,-0.0100807,0.13861,-1.01489,-0.0018523,0.0175366,-0.0127227
2.06,0.0191833,-0.169932,-0.00851481,0.174579,0.823432,-0.0018523,0.0203789,-0.00110309
2.07,0.0175718,-0.152406,-0.00695524,0.137461,-0.848341,-0.0018523,0.0168971,-0.01009
2.08,0.0159678,-0.168379,-0.00542984,0.167642,0.862007,-0.0018523,0.03959,0.000754024
2.09,0.014375,-0.150213,-0.00394291,0.129868,-3.60161,-0.0018523,0.0420902,-0.0269658
2.1,0.0125175,-0.22124,-0.00193995,0.270605,-1.56099,0.000290695,0.0233191,-0.0188776
2.11,0.0101548,-0.251281,0.00106043,0.32952,2.17984,0.000290695,0.0239718,0.00465761
2.12,0.00786539,-0.206665,0.00390558,0.239774,0.776667,0.000290695,-0.00621609,-0.000402588
2.13,0.00588033,-0.190376,0.00614063,0.207387,1.43487,0.000290695,0.0152639,0.00572379
2.14,0.00412302,-0.161126,0.00792491,0.149639,-0.424427,0.000290695,-0.0159389,-0.0041512
2.15,0.0024715,-0.169181,0.00950732,0.166889,1.55209,-0.00270206,0.0108205,0.00950897
2.16,0.000936627,-0.13783,0.0108695,0.105711,0.409865,-0.00270206,0.00944793,0.00458688
2.17,-0.000399826,-0.129474,0.0118522,0.0908785,1.81876,-0.00270206,-0.0019586,0.0146809
2.18,-0.00151248,-0.0930941,0.0124075,0.0203144,-0.0450309,-0.00270206,0.00183792,0.00496633
2.19,-0.00244843,-0.0940948,0.0126324,0.0246884,3.35409,-0.00270206,-0.0203717,0.0272755
2.2,-0.00305509,-0.0272951,0.0122235,-0.106297,0.55482,-0.00642674,-0.00551209,0.0145784
2.21,-0.00327481,-0.0166507,0.0110677,-0.124886,0.882991,-0.00642674,-0.0182772,0.0170934
2.22,-0.00335537,0.000533183,0.00965978,-0.156713,-0.679398,-0.00642674,0.0150103,0.00745449
2.23,-0.00342021,-0.013479,0.00824459,-0.126434,-0.229332,-0.00642674,-0.00926398,0.00883095
2.24,-0.0035796,-0.0183868,0.00703931,-0.114693,-0.651652,-0.00642674,-0.00272174,0.00523873
2.25,-0.00382986,-0.0316466,0.00603359,-0.0865381,1.88015,-0.00282,0.00434097,0.0195991
2.26,-0.00395944,0.00570535,0.00480199,-0.159727,-2.08987,-0.00282,-0.00239909,-0.00455398
2.27,-0.00411252,-0.0362765,0.00363159,-0.0745334,-2.80219,-0.00282,0.00864289,-0.0131276
2.28,-0.00475522,-0.092211,0.00345019,0.0380752,1.49173,-0.00282,0.016895,0.0110434
